25 105.3333
25.05 94.66666
25.10 97.33334
25.15 99.33334
25.20 77.33334
25.25 84
25.30 103.3333
25.35 93.33334
25.40 116.6667
25.45 88.66666
25.50 85.33334
25.55 90.66666
25.60 90
25.65 94
25.70 100.6667
25.75 96
25.80 99.33334
25.85 94.66666
25.90 102.6667
25.95 112.6667
26.00 104.6667
26.05 100.6667
26.10 110
26.15 104
26.20 103.3333
26.25 104.6667
26.30 92
26.35 85.33334
26.40 106.6667
26.45 120
26.50 114.6667
26.55 108
26.60 98.66666
26.65 110.6667
26.70 98.66666
26.75 90
26.80 91.33334
26.85 88
26.90 99.33334
26.95 108
27.00 94
27.05 97.33334
27.10 96.66666
27.15 104
27.20 116
27.25 88
27.30 82
27.35 115.3333
27.40 102
27.45 100
27.50 98.66666
27.55 100.6667
27.60 108
27.65 110
27.70 104
27.75 112.6667
27.80 99.33334
27.85 94
27.90 114
27.95 106.6667
28.00 99.33334
28.05 114.6667
28.10 136.6667
28.15 227.3333
28.20 218.6667
28.25 188.6667
28.30 136
28.35 118.6667
28.40 108
28.45 126.6667
28.50 116
28.55 125.3333
28.60 121.3333
28.65 105.3333
28.70 120.6667
28.75 120
28.80 121.3333
28.85 140.6667
28.90 146
28.95 138.6667
29.00 138
29.05 176.6667
29.10 205.3333
29.15 283.3333
29.20 380.6667
29.25 560
29.30 816
29.35 1319.333
29.40 2052.667
29.45 2990.667
29.50 3555.333
29.55 2930
29.60 1868.667
29.65 930.6667
29.70 400.6667
29.75 227.3333
29.80 192.6667
29.85 158
29.90 155.3333
29.95 131.3333
30.00 132.6667
30.05 145.3333
30.10 121.3333
30.15 134.6667
30.20 127.3333
30.25 140
30.30 143.3333
30.35 194
30.40 324.6667
30.45 342
30.50 254.6667
30.55 196
30.60 126
30.65 122.6667
30.70 121.3333
30.75 125.3333
30.80 127.3333
30.85 116.6667
30.90 122
30.95 138.6667
31.00 117.3333
31.05 131.3333
31.10 129.3333
31.15 134
31.20 109.3333
31.25 118.6667
31.30 132.6667
31.35 118
31.40 128.6667
31.45 125.3333
31.50 124.6667
31.55 118.6667
31.60 133.3333
31.65 124.6667
31.70 119.3333
31.75 128
31.80 136.6667
31.85 107.3333
31.90 108
31.95 133.3333
32.00 101.3333
32.05 108
32.10 120.6667
32.15 132
32.20 134.6667
32.25 114.6667
32.30 105.3333
32.35 114.6667
32.40 133.3333
32.45 120.6667
32.50 115.3333
32.55 114.6667
32.60 132
32.65 124
32.70 116
32.75 116.6667
32.80 132.6667
32.85 128
32.90 99.33334
32.95 117.3333
33.00 114
33.05 126
33.10 138.6667
33.15 130
33.20 135.3333
33.25 118
33.30 122.6667
33.35 125.3333
33.40 140.6667
33.45 124
33.50 131.3333
33.55 120
33.60 128.6667
33.65 137.3333
33.70 121.3333
33.75 156
33.80 161.3333
33.85 184
33.90 234.6667
33.95 307.3333
34.00 356
34.05 558.6667
34.10 896
34.15 1265.333
34.20 1657.333
34.25 1786.667
34.30 1446
34.35 880.6667
34.40 454.6667
34.45 270
34.50 173.3333
34.55 140.6667
34.60 124
34.65 151.3333
34.70 140
34.75 150.6667
34.80 136.6667
34.85 124
34.90 143.3333
34.95 124.6667
35.00 137.3333
35.05 126
35.10 128.6667
35.15 118.6667
35.20 137.3333
35.25 139.3333
35.30 147.3333
35.35 145.3333
35.40 140
35.45 126.6667
35.50 135.3333
35.55 114.6667
35.60 128.6667
35.65 139.3333
35.70 131.3333
35.75 110.6667
35.80 131.3333
35.85 120.6667
35.90 152
35.95 112.6667
36.00 148.6667
36.05 134.6667
36.10 149.3333
36.15 141.3333
36.20 146.6667
36.25 131.3333
36.30 120.6667
36.35 154.6667
36.40 126.6667
36.45 134.6667
36.50 121.3333
36.55 142.6667
36.60 129.3333
36.65 134.6667
36.70 133.3333
36.75 130
36.80 129.3333
36.85 129.3333
36.90 127.3333
36.95 132.6667
37.00 139.3333
37.05 128
37.10 130
37.15 138.6667
37.20 123.3333
37.25 126
37.30 120.6667
37.35 120.6667
37.40 132.6667
37.45 131.3333
37.50 130
37.55 114
37.60 143.3333
37.65 134.6667
37.70 107.3333
37.75 119.3333
37.80 114
37.85 134.6667
37.90 116.6667
37.95 126
38.00 135.3333
38.05 142.6667
38.10 142.6667
38.15 135.3333
38.20 131.3333
38.25 111.3333
38.30 142
38.35 122
38.40 124
38.45 143.3333
38.50 130.6667
38.55 137.3333
38.60 136.6667
38.65 140.6667
38.70 135.3333
38.75 146.6667
38.80 143.3333
38.85 123.3333
38.90 126
38.95 133.3333
39.00 143.3333
39.05 133.3333
39.10 145.3333
39.15 126
39.20 141.3333
39.25 152
39.30 138
39.35 130
39.40 132
39.45 140
39.50 130
39.55 152.6667
39.60 124
39.65 150.6667
39.70 146.6667
39.75 145.3333
39.80 161.3333
39.85 138.6667
39.90 118
39.95 135.3333
40.00 142.6667
40.05 148
40.10 152.6667
40.15 148.6667
40.20 145.3333
40.25 151.3333
40.30 151.3333
40.35 143.3333
40.40 136
40.45 137.3333
40.50 129.3333
40.55 130.6667
40.60 122
40.65 145.3333
40.70 120
40.75 137.3333
40.80 150.6667
40.85 162.6667
40.90 133.3333
40.95 143.3333
41.00 136.6667
41.05 132
41.10 160.6667
41.15 146
41.20 148.6667
41.25 143.3333
41.30 143.3333
41.35 130.6667
41.40 134
41.45 142.6667
41.50 140.6667
41.55 129.3333
41.60 138
41.65 133.3333
41.70 136
41.75 141.3333
41.80 131.3333
41.85 144.6667
41.90 153.3333
41.95 131.3333
42.00 144.6667
42.05 156
42.10 154.6667
42.15 157.3333
42.20 164.6667
42.25 148.6667
42.30 129.3333
42.35 135.3333
42.40 136
42.45 153.3333
42.50 144
42.55 148.6667
42.60 146
42.65 144
42.70 150.6667
42.75 137.3333
42.80 138.6667
42.85 144.6667
42.90 132
42.95 130
43.00 143.3333
43.05 151.3333
43.10 123.3333
43.15 130.6667
43.20 156
43.25 144.6667
43.30 149.3333
43.35 150.6667
43.40 148
43.45 150.6667
43.50 154.6667
43.55 146.6667
43.60 144.6667
43.65 154.6667
43.70 166.6667
43.75 178
43.80 167.3333
43.85 164.6667
43.90 165.3333
43.95 155.3333
44.00 164.6667
44.05 144.6667
44.10 174
44.15 160.6667
44.20 156.6667
44.25 156.6667
44.30 165.3333
44.35 146
44.40 157.3333
44.45 172
44.50 168.6667
44.55 138.6667
44.60 163.3333
44.65 164
44.70 135.3333
44.75 162
44.80 147.3333
44.85 150
44.90 161.3333
44.95 148
45.00 172.6667
45.05 176.6667
45.10 170
45.15 168.6667
45.20 163.3333
45.25 145.3333
45.30 162.6667
45.35 166
45.40 146.6667
45.45 179.3333
45.50 149.3333
45.55 152
45.60 156
45.65 160
45.70 153.3333
45.75 151.3333
45.80 145.3333
45.85 175.3333
45.90 158
45.95 152.6667
46.00 158.6667
46.05 170
46.10 166
46.15 156
46.20 155.3333
46.25 172.6667
46.30 177.3333
46.35 164.6667
46.40 168.6667
46.45 178.6667
46.50 197.3333
46.55 160
46.60 144
46.65 160.6667
46.70 170
46.75 182.6667
46.80 179.3333
46.85 192
46.90 177.3333
46.95 167.3333
47.00 170.6667
47.05 152.6667
47.10 175.3333
47.15 176.6667
47.20 190.6667
47.25 160.6667
47.30 169.3333
47.35 174
47.40 184
47.45 192.6667
47.50 168.6667
47.55 190
47.60 158.6667
47.65 186
47.70 179.3333
47.75 173.3333
47.80 198.6667
47.85 187.3333
47.90 192.6667
47.95 214.6667
48.00 191.3333
48.05 196.6667
48.10 195.3333
48.15 188.6667
48.20 167.3333
48.25 176
48.30 181.3333
48.35 180
48.40 180.6667
48.45 183.3333
48.50 176.6667
48.55 196
48.60 194
48.65 198
48.70 228.6667
48.75 245.3333
48.80 294.6667
48.85 342.6667
48.90 408.6667
48.95 436
49.00 560.6667
49.05 786
49.10 1134.667
49.15 1631.333
49.20 2144
49.25 2386
49.30 2312.667
49.35 1842
49.40 1343.333
49.45 880
49.50 575.3333
49.55 344
49.60 272
49.65 218.6667
49.70 208.6667
49.75 218
49.80 206
49.85 206.6667
49.90 200.6667
49.95 198
50.00 197.3333
50.05 190.6667
50.10 189.3333
50.15 186.6667
50.20 187.3333
50.25 187.3333
50.30 199.3333
50.35 176.6667
50.40 204.6667
50.45 195.3333
50.50 179.3333
50.55 181.3333
50.60 186.6667
50.65 183.3333
50.70 198
50.75 182.6667
50.80 182
50.85 174.6667
50.90 176
50.95 202
51.00 176
51.05 192.6667
51.10 181.3333
51.15 161.3333
51.20 170.6667
51.25 167.3333
51.30 187.3333
51.35 176.6667
51.40 175.3333
51.45 189.3333
51.50 172.6667
51.55 183.3333
51.60 167.3333
51.65 186.6667
51.70 184
51.75 188
51.80 168.6667
51.85 191.3333
51.90 151.3333
51.95 183.3333
52.00 178
52.05 180.6667
52.10 199.3333
52.15 200.6667
52.20 192
52.25 195.3333
52.30 189.3333
52.35 187.3333
52.40 202.6667
52.45 214.6667
52.50 182
52.55 192.6667
52.60 190
52.65 199.3333
52.70 205.3333
52.75 214.6667
52.80 226.6667
52.85 204.6667
52.90 222
52.95 206
53.00 204
53.05 189.3333
53.10 190
53.15 193.3333
53.20 197.3333
53.25 202.6667
53.30 204
53.35 182
53.40 191.3333
53.45 202
53.50 228.6667
53.55 224
53.60 206
53.65 243.3333
53.70 202.6667
53.75 192.6667
53.80 201.3333
53.85 224.6667
53.90 200.6667
53.95 191.3333
54.00 206.6667
54.05 197.3333
54.10 200
54.15 203.3333
54.20 188.6667
54.25 187.3333
54.30 211.3333
54.35 199.3333
54.40 191.3333
54.45 205.3333
54.50 201.3333
54.55 211.3333
54.60 223.3333
54.65 224.6667
54.70 188
54.75 194
54.80 184.6667
54.85 203.3333
54.90 203.3333
54.95 216.6667
55.00 212.6667
55.05 199.3333
55.10 197.3333
55.15 214.6667
55.20 209.3333
55.25 214.6667
55.30 202.6667
55.35 209.3333
55.40 214.6667
55.45 212
55.50 185.3333
55.55 192.6667
55.60 196
55.65 202.6667
55.70 189.3333
55.75 212.6667
55.80 214
55.85 209.3333
55.90 199.3333
55.95 199.3333
56.00 204
56.05 196.6667
56.10 222
56.15 210
56.20 208
56.25 194.6667
56.30 195.3333
56.35 202.6667
56.40 201.3333
56.45 186.6667
56.50 216
56.55 228
56.60 226
56.65 212.6667
56.70 222.6667
56.75 216.6667
56.80 229.3333
56.85 202.6667
56.90 207.3333
56.95 213.3333
57.00 178
57.05 218
57.10 233.3333
57.15 230
57.20 235.3333
57.25 207.3333
57.30 202.6667
57.35 234.6667
57.40 224.6667
57.45 225.3333
57.50 225.3333
57.55 191.3333
57.60 202.6667
57.65 212
57.70 227.3333
57.75 222
57.80 220.6667
57.85 234
57.90 252.6667
57.95 275.3333
58.00 326
58.05 346
58.10 372.6667
58.15 368
58.20 467.3333
58.25 541.3333
58.30 732.6667
58.35 1036.667
58.40 1458.667
58.45 1939.333
58.50 2220
58.55 2306
58.60 2126
58.65 1747.333
58.70 1371.333
58.75 970.6667
58.80 705.3333
58.85 466
58.90 324.6667
58.95 262
59.00 254
59.05 262.6667
59.10 234
59.15 236
59.20 222
59.25 236
59.30 231.3333
59.35 234.6667
59.40 244
59.45 215.3333
59.50 248
59.55 250
59.60 241.3333
59.65 261.3333
59.70 238
59.75 226.6667
59.80 209.3333
59.85 213.3333
59.90 226.6667
59.95 200.6667
60.00 232
