25 94
25.05 106.6667
25.10 105.3333
25.15 98.66666
25.20 109.3333
25.25 98
25.30 115.3333
25.35 92
25.40 98.66666
25.45 104.6667
25.50 100
25.55 103.3333
25.60 104.6667
25.65 95.33334
25.70 109.3333
25.75 113.3333
25.80 103.3333
25.85 123.3333
25.90 92.66666
25.95 106
26.00 102
26.05 105.3333
26.10 92
26.15 105.3333
26.20 99.33334
26.25 102
26.30 109.3333
26.35 114.6667
26.40 107.3333
26.45 130.6667
26.50 125.3333
26.55 130
26.60 131.3333
26.65 107.3333
26.70 89.33334
26.75 89.33334
26.80 78
26.85 109.3333
26.90 103.3333
26.95 97.33334
27.00 92.66666
27.05 103.3333
27.10 106
27.15 96
27.20 93.33334
27.25 92
27.30 101.3333
27.35 97.33334
27.40 100
27.45 97.33334
27.50 94
27.55 87.33334
27.60 101.3333
27.65 105.3333
27.70 105.3333
27.75 90
27.80 102.6667
27.85 93.33334
27.90 93.33334
27.95 82.66666
28.00 96
28.05 127.3333
28.10 111.3333
28.15 130.6667
28.20 126.6667
28.25 110
28.30 100.6667
28.35 96.66666
28.40 112
28.45 114
28.50 117.3333
28.55 128
28.60 136
28.65 129.3333
28.70 117.3333
28.75 129.3333
28.80 132
28.85 142
28.90 148
28.95 152.6667
29.00 146.6667
29.05 192
29.10 212
29.15 250
29.20 408
29.25 684.6667
29.30 1259.333
29.35 2263.333
29.40 3558.667
29.45 5111.333
29.50 5430
29.55 4053.333
29.60 2146.667
29.65 884.6667
29.70 358
29.75 244.6667
29.80 187.3333
29.85 150.6667
29.90 148.6667
29.95 150
30.00 146.6667
30.05 138.6667
30.10 151.3333
30.15 119.3333
30.20 137.3333
30.25 156
30.30 162
30.35 167.3333
30.40 132.6667
30.45 154
30.50 129.3333
30.55 120.6667
30.60 137.3333
30.65 142.6667
30.70 140
30.75 138
30.80 128.6667
30.85 146
30.90 144.6667
30.95 112.6667
31.00 122.6667
31.05 110
31.10 113.3333
31.15 138
31.20 112.6667
31.25 110.6667
31.30 128.6667
31.35 134
31.40 124
31.45 104
31.50 128
31.55 103.3333
31.60 124
31.65 127.3333
31.70 129.3333
31.75 131.3333
31.80 139.3333
31.85 116.6667
31.90 107.3333
31.95 123.3333
32.00 104
32.05 116
32.10 109.3333
32.15 104.6667
32.20 128
32.25 111.3333
32.30 112
32.35 113.3333
32.40 110.6667
32.45 118.6667
32.50 125.3333
32.55 130.6667
32.60 96
32.65 114.6667
32.70 117.3333
32.75 132.6667
32.80 138
32.85 118.6667
32.90 118
32.95 108
33.00 105.3333
33.05 108
33.10 136
33.15 135.3333
33.20 132
33.25 122.6667
33.30 120.6667
33.35 130.6667
33.40 121.3333
33.45 117.3333
33.50 126
33.55 139.3333
33.60 133.3333
33.65 132
33.70 148.6667
33.75 140.6667
33.80 149.3333
33.85 166
33.90 195.3333
33.95 256
34.00 401.3333
34.05 684.6667
34.10 1152
34.15 1710.667
34.20 2240.667
34.25 2225.333
34.30 1727.333
34.35 1024.667
34.40 511.3333
34.45 255.3333
34.50 177.3333
34.55 154.6667
34.60 140
34.65 135.3333
34.70 124.6667
34.75 137.3333
34.80 124.6667
34.85 127.3333
34.90 126
34.95 112
35.00 130.6667
35.05 128.6667
35.10 111.3333
35.15 130
35.20 139.3333
35.25 129.3333
35.30 143.3333
35.35 120
35.40 130.6667
35.45 124.6667
35.50 136
35.55 116
35.60 117.3333
35.65 114
35.70 122.6667
35.75 115.3333
35.80 112
35.85 115.3333
35.90 121.3333
35.95 118
36.00 129.3333
36.05 117.3333
36.10 117.3333
36.15 132
36.20 142
36.25 102
36.30 133.3333
36.35 108.6667
36.40 101.3333
36.45 128.6667
36.50 113.3333
36.55 116
36.60 127.3333
36.65 108.6667
36.70 118.6667
36.75 120
36.80 126.6667
36.85 108.6667
36.90 132.6667
36.95 110.6667
37.00 94
37.05 118
37.10 90
37.15 106.6667
37.20 114.6667
37.25 116.6667
37.30 113.3333
37.35 121.3333
37.40 106.6667
37.45 112
37.50 113.3333
37.55 138
37.60 120
37.65 114.6667
37.70 116
37.75 120
37.80 117.3333
37.85 120.6667
37.90 120
37.95 117.3333
38.00 120.6667
38.05 118
38.10 132.6667
38.15 135.3333
38.20 126.6667
38.25 135.3333
38.30 129.3333
38.35 139.3333
38.40 114.6667
38.45 134.6667
38.50 119.3333
38.55 125.3333
38.60 130
38.65 126.6667
38.70 122.6667
38.75 130
38.80 114
38.85 138.6667
38.90 117.3333
38.95 112.6667
39.00 122
39.05 128
39.10 127.3333
39.15 127.3333
39.20 131.3333
39.25 134
39.30 131.3333
39.35 130
39.40 140
39.45 134.6667
39.50 134
39.55 129.3333
39.60 150.6667
39.65 125.3333
39.70 120
39.75 131.3333
39.80 139.3333
39.85 133.3333
39.90 124.6667
39.95 136.6667
40.00 128.6667
40.05 150
40.10 120
40.15 126
40.20 117.3333
40.25 127.3333
40.30 147.3333
40.35 132.6667
40.40 132
40.45 118
40.50 126
40.55 121.3333
40.60 107.3333
40.65 131.3333
40.70 116
40.75 120
40.80 138.6667
40.85 126
40.90 140.6667
40.95 121.3333
41.00 125.3333
41.05 118
41.10 128
41.15 125.3333
41.20 108
41.25 117.3333
41.30 118.6667
41.35 130
41.40 111.3333
41.45 115.3333
41.50 130.6667
41.55 132
41.60 110
41.65 125.3333
41.70 128
41.75 135.3333
41.80 123.3333
41.85 116
41.90 130
41.95 128.6667
42.00 138.6667
42.05 126
42.10 142.6667
42.15 125.3333
42.20 118
42.25 116.6667
42.30 134
42.35 122
42.40 127.3333
42.45 120
42.50 132.6667
42.55 132
42.60 129.3333
42.65 129.3333
42.70 122.6667
42.75 136
42.80 132
42.85 120
42.90 134.6667
42.95 130.6667
43.00 153.3333
43.05 129.3333
43.10 129.3333
43.15 112
43.20 130
43.25 139.3333
43.30 142.6667
43.35 130
43.40 136.6667
43.45 134
43.50 142.6667
43.55 148.6667
43.60 140
43.65 150
43.70 117.3333
43.75 138.6667
43.80 146
43.85 127.3333
43.90 147.3333
43.95 129.3333
44.00 126.6667
44.05 150.6667
44.10 156
44.15 144.6667
44.20 152.6667
44.25 164.6667
44.30 138.6667
44.35 152.6667
44.40 140
44.45 150.6667
44.50 131.3333
44.55 130
44.60 140
44.65 150.6667
44.70 150
44.75 155.3333
44.80 127.3333
44.85 136
44.90 141.3333
44.95 136.6667
45.00 148
45.05 137.3333
45.10 127.3333
45.15 134
45.20 131.3333
45.25 146.6667
45.30 124
45.35 134.6667
45.40 131.3333
45.45 150
45.50 138
45.55 144
45.60 138.6667
45.65 141.3333
45.70 151.3333
45.75 131.3333
45.80 141.3333
45.85 130.6667
45.90 132
45.95 142
46.00 126
46.05 144.6667
46.10 130.6667
46.15 141.3333
46.20 156.6667
46.25 152.6667
46.30 144
46.35 145.3333
46.40 136.6667
46.45 154.6667
46.50 139.3333
46.55 136.6667
46.60 142.6667
46.65 150
46.70 139.3333
46.75 127.3333
46.80 154
46.85 142.6667
46.90 136
46.95 148
47.00 152.6667
47.05 150.6667
47.10 154.6667
47.15 163.3333
47.20 163.3333
47.25 137.3333
47.30 130.6667
47.35 168.6667
47.40 165.3333
47.45 162.6667
47.50 164.6667
47.55 165.3333
47.60 166
47.65 158
47.70 167.3333
47.75 151.3333
47.80 167.3333
47.85 163.3333
47.90 178.6667
47.95 178
48.00 169.3333
48.05 177.3333
48.10 186
48.15 160
48.20 178
48.25 167.3333
48.30 146
48.35 175.3333
48.40 186.6667
48.45 166.6667
48.50 166.6667
48.55 182
48.60 188
48.65 194.6667
48.70 167.3333
48.75 182.6667
48.80 200
48.85 208
48.90 250.6667
48.95 283.3333
49.00 359.3333
49.05 470.6667
49.10 724.6667
49.15 1154
49.20 1925.333
49.25 2764
49.30 3398
49.35 3318
49.40 2562
49.45 1834
49.50 1237.333
49.55 671.3333
49.60 326
49.65 254
49.70 213.3333
49.75 212.6667
49.80 193.3333
49.85 180.6667
49.90 189.3333
49.95 151.3333
50.00 188
50.05 183.3333
50.10 162
50.15 182.6667
50.20 146.6667
50.25 150
50.30 158.6667
50.35 147.3333
50.40 164
50.45 177.3333
50.50 180
50.55 171.3333
50.60 158
50.65 179.3333
50.70 174.6667
50.75 156.6667
50.80 162
50.85 150.6667
50.90 158.6667
50.95 154.6667
51.00 149.3333
51.05 160
51.10 156.6667
51.15 138
51.20 158.6667
51.25 134
51.30 138.6667
51.35 159.3333
51.40 158.6667
51.45 154
51.50 146
51.55 162
51.60 138
51.65 166
51.70 146.6667
51.75 152
51.80 166.6667
51.85 165.3333
51.90 142
51.95 146
52.00 162.6667
52.05 166
52.10 144.6667
52.15 147.3333
52.20 161.3333
52.25 164
52.30 178.6667
52.35 153.3333
52.40 180.6667
52.45 182.6667
52.50 157.3333
52.55 168
52.60 154.6667
52.65 163.3333
52.70 168.6667
52.75 173.3333
52.80 160
52.85 176.6667
52.90 162.6667
52.95 165.3333
53.00 160
53.05 167.3333
53.10 162.6667
53.15 168
53.20 170
53.25 167.3333
53.30 197.3333
53.35 228.6667
53.40 261.3333
53.45 227.3333
53.50 219.3333
53.55 207.3333
53.60 200.6667
53.65 185.3333
53.70 172.6667
53.75 178.6667
53.80 179.3333
53.85 190.6667
53.90 188
53.95 180
54.00 169.3333
54.05 161.3333
54.10 185.3333
54.15 194.6667
54.20 204
54.25 191.3333
54.30 162.6667
54.35 169.3333
54.40 188.6667
54.45 169.3333
54.50 186
54.55 178
54.60 176.6667
54.65 177.3333
54.70 181.3333
54.75 198
54.80 182
54.85 208.6667
54.90 160
54.95 190.6667
55.00 206.6667
55.05 204
55.10 198
55.15 206
55.20 179.3333
55.25 184
55.30 182
55.35 197.3333
55.40 195.3333
55.45 195.3333
55.50 186.6667
55.55 184
55.60 181.3333
55.65 170.6667
55.70 185.3333
55.75 170
55.80 164
55.85 158
55.90 172.6667
55.95 174
56.00 173.3333
56.05 176.6667
56.10 168.6667
56.15 166
56.20 178
56.25 170
56.30 174
56.35 174
56.40 188
56.45 166.6667
56.50 177.3333
56.55 190
56.60 183.3333
56.65 180.6667
56.70 184.6667
56.75 188.6667
56.80 180.6667
56.85 204
56.90 181.3333
56.95 174
57.00 196.6667
57.05 196.6667
57.10 195.3333
57.15 202
57.20 175.3333
57.25 191.3333
57.30 173.3333
57.35 183.3333
57.40 198
57.45 185.3333
57.50 170.6667
57.55 181.3333
57.60 180
57.65 182.6667
57.70 168.6667
57.75 196.6667
57.80 172
57.85 205.3333
57.90 194.6667
57.95 208.6667
58.00 212
58.05 202.6667
58.10 208.6667
58.15 230
58.20 278
58.25 307.3333
58.30 386
58.35 453.3333
58.40 631.3333
58.45 1115.333
58.50 1670
58.55 2384
58.60 3043.333
58.65 3265.333
58.70 2923.333
58.75 2382
58.80 1845.333
58.85 1305.333
58.90 824.6667
58.95 502
59.00 350
59.05 272.6667
59.10 238
59.15 230
59.20 216
59.25 220
59.30 200
59.35 182.6667
59.40 202
59.45 172.6667
59.50 206.6667
59.55 206
59.60 198
59.65 228
59.70 214
59.75 180
59.80 188.6667
59.85 191.3333
59.90 207.3333
59.95 198.6667
60.00 196
